date,freq
2017,0.0
2016,2.85173027308e-07
2015,2.88746286723e-07
2014,0.0
2013,0.0
2012,8.9640005737e-07
2011,0.0
2010,0.0
2009,0.0
2008,5.51662047416e-07
2007,0.0
2006,5.67008657939e-07
2005,0.0
2004,0.0
2003,1.76588850827e-06
2002,0.0
2001,0.0
2000,9.24942746044e-07
1999,0.0
1998,0.0
1997,3.22185915449e-07
1996,3.12523243916e-07
1995,0.0
1994,2.97896996156e-07
1993,0.0
1992,2.65527095181e-07
1991,2.52979913648e-07
1990,2.48714952022e-07
1989,5.19408207065e-07
1988,2.6899002316e-07
1987,1.11298153842e-06
1986,5.60543458093e-07
1985,0.0
1984,8.06076094121e-07
1983,0.0
1982,5.77050027929e-07
1981,1.19220097886e-06
1980,2.94756864887e-06
1979,6.75583239455e-07
1978,4.45418273456e-06
1977,2.00624879625e-06
1976,2.26987886954e-06
1975,3.45866976102e-07
1974,1.68091692001e-06
1973,0.0
1972,2.47661193826e-06
1971,4.96966375255e-06
1970,3.60334000792e-07
1969,1.08563134348e-06
1968,7.57026626519e-07
1967,8.99010077528e-06
1966,7.40492264448e-07
1965,3.9096740192e-07
1964,2.34060937765e-06
1963,1.51668025991e-06
1962,2.0111053236e-06
1961,8.22617709396e-07
1960,2.0568615255e-06
1959,0.0
1958,1.72925787601e-06
1957,0.0
1956,0.0
1955,9.32883683398e-07
1954,4.88447484324e-07
1953,0.0
1952,2.12760298928e-06
1951,5.5207167657e-07
1950,0.0
1949,0.0
1948,0.0
1947,0.0
1946,0.0
1945,0.0
1944,0.0
1943,0.0
1942,5.56810544655e-07
1941,0.0
1940,5.66784822409e-07
1939,0.0
1938,5.50051374798e-07
1937,0.0
1936,1.28555965125e-06
1935,0.0
1934,0.0
1933,0.0
1932,0.0
1931,0.0
1930,0.0
1929,0.0
1928,0.0
1927,0.0
1926,0.0
1925,0.0
1924,0.0
1923,0.0
1922,0.0
1921,0.0
1920,2.64227087328e-06
1919,0.0
1918,0.0
1917,0.0
1916,0.0
1915,0.0
1914,0.0
1913,0.0
1912,0.0
1911,0.0
1910,0.0
1909,0.0
1908,0.0
1907,0.0
1906,0.0
1905,0.0
1904,0.0
1903,0.0
1902,0.0
1901,0.0
1900,0.0
1899,0.0
1898,0.0
1897,0.0
1896,0.0
1895,0.0
1894,0.0
1893,0.0
1892,0.0
1891,0.0
1890,0.0
1889,0.0
1888,0.0
1887,0.0
1886,0.0
1885,0.0
1884,0.0
1883,0.0
1882,0.0
1881,0.0
1880,0.0
1879,0.0
1878,0.0
1877,0.0
1876,0.0
1875,0.0
1874,1.35068513503e-06
1873,0.0
1872,0.0
1871,0.0
1870,0.0
1869,0.0
1868,0.0
1867,0.0
1866,0.0
1865,1.84980678768e-06
1864,0.0
1863,0.0
1862,0.0
1861,0.0
1860,0.0
1859,0.0
1858,0.0
1857,0.0
1856,0.0
1855,0.0
1854,0.0
1853,0.0
1852,0.0
1851,0.0
1850,0.0
1849,0.0
1848,0.0
1847,0.0
1846,0.0
1845,0.0
1844,0.0
1843,0.0
1842,0.0
1841,0.0
1840,0.0
1839,0.0
1838,0.0
1837,0.0
1836,0.0
1835,0.0
1834,0.0
1833,0.0
1832,0.0
1831,0.0
1830,0.0
1829,0.0
1828,0.0
1827,0.0
1826,0.0
1825,0.0
1824,0.0
1823,0.0
1822,0.0
1821,0.0
1820,0.0
1819,0.0
1818,0.0
1817,0.0
1816,0.0
1815,0.0
1814,0.0
1813,0.0
1812,0.0
